time,z,phi,theta,z_dot,phi_dot,theta_dot,u1_fl,u2_fr,u3_rl,u4_rr
0.0,0.0,0.0,0.0,0.0,0.0,0.0,-0.00023664441,0.00043547852,0.00033748522,0.0003106636
0.01,3.3041157148545606e-09,-4.906592764205933e-09,3.2997920470734243e-09,6.391780235571788e-07,-9.564814084976625e-07,6.396603690461689e-07,-0.0002366472,0.00043547666,0.00033748522,0.0003106608
0.02,1.2388758320501908e-08,-1.866496869085573e-08,1.2420444086224571e-08,1.1595924793569725e-06,-1.7733680358502436e-06,1.167227585396749e-06,-0.0002366472,0.00043547852,0.00033748895,0.0003106636
0.03,2.616495645868423e-08,-3.9965803254624326e-08,2.632784136826872e-08,1.5804259835115834e-06,-2.4676333219479336e-06,1.5996161320318804e-06,-0.00023664441,0.0004354776,0.00033749267,0.00031066174
0.04,4.371992229031884e-08,-6.765930242388506e-08,4.414420517739766e-08,1.91781957633675e-06,-3.054250966613592e-06,1.951244672509755e-06,-0.00023664907,0.00043547899,0.00033749267,0.0003106636
0.05,6.428917322472077e-08,-1.007366941819233e-07,6.51251348458427e-08,2.1853660579215916e-06,-3.5464864272260064e-06,2.2344256850719657e-06,-0.00023664907,0.00043547666,0.00033749267,0.0003106608
0.06,8.72331156201015e-08,-1.383137071441483e-07,8.863997340313497e-08,2.394511735648836e-06,-3.956007354987694e-06,2.4596437823223337e-06,-0.00023665093,0.00043547526,0.00033749267,0.000310658
0.07,1.1201731963486491e-07,-1.7961589196867502e-07,1.1415502933623963e-07,2.554894719495751e-06,-4.293137910358686e-06,2.6358479537487403e-06,-0.00023665186,0.0004354776,0.00033749267,0.0003106636
0.08,1.381959419417879e-07,-2.2396591832770853e-07,1.4121934412255883e-07,2.6746374656426e-06,-4.567002273950372e-06,2.7706705726449275e-06,-0.00023664813,0.0004354776,0.00033749267,0.0003106636
0.09,1.6539767479536793e-07,-2.707720368747163e-07,1.6945240789433028e-07,2.7605618811599016e-06,-4.78561541238297e-06,2.8705993373087186e-06,-0.00023665,0.00043547666,0.0003374964,0.00031065987
0.1,1.9331384487979178e-07,-3.195179023499155e-07,1.9853376629652842e-07,2.8184040096878602e-06,-4.956062187835892e-06,2.9411823812285175e-06,-0.0002366472,0.00043547852,0.0003374964,0.0003106636
0.11,2.2168851505235975e-07,-3.697538372845965e-07,2.2819414629400192e-07,2.8530006942188795e-06,-5.084608030504505e-06,2.987130070344143e-06,-0.00023665093,0.00043547666,0.00033749267,0.0003106636
0.12,2.5031003624027217e-07,-4.2108897757591535e-07,2.582078333983669e-07,2.868395522254958e-06,-5.176765709259098e-06,3.0124619763898063e-06,-0.00023664907,0.00043547573,0.00033748522,0.0003106608
0.13,2.790039418457625e-07,-4.731841925793068e-07,2.8838611753615936e-07,2.8679994423009743e-06,-5.2373828820907685e-06,3.020575987379887e-06,-0.00023665093,0.0004354776,0.00033749267,0.0003106636
0.14,3.076271389088049e-07,-5.257458858305663e-07,3.1857191653663496e-07,2.854691395837193e-06,-5.2707305909224735e-06,3.0144116758422874e-06,-0.00023665093,0.00043547666,0.00033749267,0.00031066453
0.15,3.3606282435045335e-07,-5.785205914812098e-07,3.486350586756199e-07,2.830864462431528e-06,-5.280574305836178e-06,2.9964246129014406e-06,-0.00023665093,0.0004354776,0.00033748895,0.0003106636
0.16,3.642161652455861e-07,-6.31290210415904e-07,3.7846803922949485e-07,2.7985305009925834e-06,-5.27023113103345e-06,2.968702379934321e-06,-0.00023665093,0.00043547805,0.00033749267,0.00031066732
0.17,3.920108296429782e-07,-6.838677177407148e-07,4.0798275789553863e-07,2.7593868164158676e-06,-5.242607346961585e-06,2.9330457446682726e-06,-0.00023664813,0.00043547573,0.00033749267,0.00031066267
0.18,4.19385942121359e-07,-7.360933002456331e-07,4.371075344991699e-07,2.7148359710672586e-06,-5.200246563426123e-06,2.8909463623521535e-06,-0.00023664907,0.0004354776,0.00033749267,0.00031066546
0.19,4.4629354922927167e-07,-7.878311948495789e-07,4.657845778756625e-07,2.6660658916441646e-06,-5.145420622008893e-06,2.8436955671356202e-06,-0.00023664813,0.00043547805,0.00033749267,0.00031066174
0.2,4.72696512925568e-07,-8.389667411429142e-07,4.939678872818152e-07,2.614057741575076e-06,-5.080084974037991e-06,2.7923660354935473e-06,-0.00023665093,0.0004354776,0.00033749267,0.0003106636
0.21,4.985666945962698e-07,-8.89403741153365e-07,5.216214633000499e-07,2.5596347696875187e-06,-5.005980961267808e-06,2.7378890034958473e-06,-0.00023665093,0.00043547805,0.00033748895,0.00031066546
0.22,5.238834730603879e-07,-9.39062254507923e-07,5.487177406138551e-07,2.503481231913505e-06,-4.92462352392335e-06,2.6810247502133384e-06,-0.00023665093,0.0004354776,0.00033748895,0.00031066174
0.23,5.486324610116782e-07,-9.878764289149647e-07,5.752361896225481e-07,2.4461630810683596e-06,-4.837319763374724e-06,2.622423050361807e-06,-0.00023665,0.0004354776,0.00033748895,0.00031066546
0.24,5.728044754076573e-07,-1.0357927721198134e-06,6.011622975252194e-07,2.3881577415636676e-06,-4.7452373674524406e-06,2.5626399539610527e-06,-0.00023664813,0.00043547666,0.00033748895,0.00031066174
0.25,5.963946145960585e-07,-1.0827685829064104e-06,6.264865506406244e-07,2.329846909386162e-06,-4.649370610171839e-06,2.502122265683142e-06,-0.00023665279,0.00043547852,0.00033749267,0.00031066546
0.26,6.194015031028352e-07,-1.1287706187934935e-06,6.512036913573482e-07,2.2715557202405958e-06,-4.550618792927694e-06,2.441275359291463e-06,-0.00023664813,0.0004354776,0.00033749267,0.0003106664
0.27,6.418266839831375e-07,-1.1737738448878473e-06,6.753119619257301e-07,2.213544661517747e-06,-4.449727545547544e-06,2.3803969324471707e-06,-0.00023664907,0.0004354748,0.00033749267,0.00031065894
0.28,6.636739938476195e-07,-1.2177602289934919e-06,6.988124097876127e-07,2.1560137855867987e-06,-4.347353607638104e-06,2.319751156313235e-06,-0.00023664907,0.00043547666,0.00033749267,0.00031066174
0.29,6.849491954941395e-07,-1.2607179974202446e-06,7.217085280492265e-07,2.0991486026214713e-06,-4.2440930937846845e-06,2.259563997843977e-06,-0.00023665186,0.00043547666,0.00033748895,0.00031066267
0.3,7.05659616453633e-07,-1.302640835334513e-06,7.440058199279008e-07,2.0430783011498875e-06,-4.140443830637658e-06,2.2000128757345198e-06,-0.00023665,0.0004354776,0.00033749267,0.00031066267
0.31,7.258138242108889e-07,-1.3435269379422523e-06,7.65711406704672e-07,1.987921919081772e-06,-4.036812058396456e-06,2.1412448095973066e-06,-0.0002366472,0.00043547712,0.00033749267,0.00031066267
0.32,7.45421380605155e-07,-1.3833783697927186e-06,7.868337027272291e-07,1.933760477228171e-06,-3.933566128818212e-06,2.08337237102841e-06,-0.00023664907,0.00043547666,0.00033749267,0.00031066174
0.33,7.644925533562679e-07,-1.4222006217461106e-06,8.073821807721424e-07,1.8806547487826847e-06,-3.831024024033543e-06,2.026495002583869e-06,-0.00023665,0.0004354776,0.00033749267,0.0003106664
0.34,7.830381891834535e-07,-1.460002138101701e-06,8.273671953732497e-07,1.8286598994803683e-06,-3.7294593968821053e-06,1.9706902306658987e-06,-0.00023665,0.00043547852,0.00033749267,0.00031066546
0.35000000000000003,8.010695599423075e-07,-1.4967937872439733e-06,8.467997127981802e-07,1.777806575056087e-06,-3.629084822074831e-06,1.9160038226537193e-06,-0.00023664907,0.00043547712,0.00033748522,0.00031066453
0.36,8.185981722788292e-07,-1.532588468431521e-06,8.656910955721584e-07,1.728111532545649e-06,-3.530094247076041e-06,1.8624696057049202e-06,-0.00023664813,0.00043547805,0.00033749267,0.00031066546
0.37,8.356357666490432e-07,-1.5674007407921706e-06,8.840531398676294e-07,1.6796043294260757e-06,-3.4326269923803945e-06,1.8101398697202827e-06,-0.00023664907,0.0004354776,0.00033749267,0.00031066174
0.38,8.521941892708125e-07,-1.6012465337576283e-06,9.018979213026586e-07,1.6322777801278407e-06,-3.336817827096603e-06,1.7590196717521605e-06,-0.00023664907,0.00043547805,0.00033749267,0.00031066546
0.39,8.682852898410228e-07,-1.6341430280448357e-06,9.192376409813724e-07,1.5861392783247627e-06,-3.2427826429164007e-06,1.7091285872895986e-06,-0.00023664907,0.00043547805,0.00033748895,0.00031066453
0.4,8.839208864307419e-07,-1.6661083793547387e-06,9.360845523083079e-07,1.5411757907325088e-06,-3.150601403565271e-06,1.6604583684858596e-06,-0.00023664907,0.00043547945,0.00033748522,0.00031066546
0.41000000000000003,8.991126986527799e-07,-1.69716148643982e-06,9.524508680999238e-07,1.4973804607208791e-06,-3.060342992071538e-06,1.6130088941575946e-06,-0.0002366472,0.00043547992,0.00033748895,0.00031066453
0.42,9.13872369312177e-07,-1.727321734848067e-06,9.68348803939645e-07,1.4547448429035509e-06,-2.9720368641436034e-06,1.5667808144986854e-06,-0.00023664907,0.00043547852,0.00033748522,0.00031066267
0.43,9.28211357553702e-07,-1.756608903416707e-06,9.83790499703936e-07,1.4132413073431099e-06,-2.8857317037249713e-06,1.5217588431214985e-06,-0.00023665186,0.00043547712,0.00033748895,0.00031066267
0.44,9.421409326835307e-07,-1.7850430867535155e-06,9.987880249997052e-07,1.3728589722144008e-06,-2.8014428164960927e-06,1.4779437160533002e-06,-0.00023665,0.00043547573,0.00033748522,0.00031065894
0.45,9.556721809565735e-07,-1.8126445129123349e-06,1.0133532380368816e-06,1.333572604191827e-06,-2.7191816756908514e-06,1.43529376295522e-06,-0.00023664813,0.00043547805,0.00033748522,0.00031066174
0.46,9.68816014099004e-07,-1.839433535971641e-06,1.027497755382028e-06,1.2953720415772227e-06,-2.6389619486679563e-06,1.3938012803041175e-06,-0.00023664907,0.00043547666,0.00033748522,0.00031066267
0.47000000000000003,9.815831390790159e-07,-1.8654305286659745e-06,1.0412330841396696e-06,1.2582271783673349e-06,-2.560774288141334e-06,1.3534522845358178e-06,-0.0002366472,0.00043547666,0.00033748522,0.00031066267
0.48,9.939840105829594e-07,-1.8906557435008942e-06,1.0545705068370144e-06,1.2221173690133566e-06,-2.4846041368835406e-06,1.3142163756474875e-06,-0.00023665093,0.00043547666,0.0003374815,0.00031066453
0.49,1.006028830083062e-06,-1.9151293638472366e-06,1.067521069137876e-06,1.1870129392586615e-06,-2.4104518473517698e-06,1.2760761910816869e-06,-0.00023664534,0.0004354748,0.00033748522,0.00031066174
0.5,1.0177275754780427e-06,-1.9388712774983333e-06,1.0800955726180211e-06,1.1528983933419546e-06,-2.3382594654204506e-06,1.2390007224143425e-06,-0.00023665093,0.00043547666,0.0003374815,0.0003106608
0.51,1.029089970156866e-06,-1.9619011602238706e-06,1.0923045604067625e-06,1.1197389897737512e-06,-2.268040716344833e-06,1.2029689946978697e-06,-0.00023665,0.0004354762,0.0003374815,0.00031066174
0.52,1.0401254891481916e-06,0.0009484618414865139,-0.0004395391521889987,1.0875191771913345e-06,0.1852758636626181,-0.0854169610087885,0.0001259353,0.00053586345,0.00044111162,0.00021971436
0.53,1.0526989520578251e-06,0.003613553342059934,-0.0016574708156980877,1.4151681339756606e-06,0.3435145848868671,-0.15586686225573584,0.00054640323,0.00062199077,0.0007572733,0.00018751761
0.54,1.0712941276447566e-06,0.0077396948153594,-0.0035146086137295383,2.2736127562984476e-06,0.4780011419071583,-0.21360629933813594,0.00020645838,0.0006430908,0.000842195,0.00020887563
0.55,1.096790485151255e-06,0.013104174852739622,-0.005893731045760548,2.805736896285381e-06,0.5916374610176164,-0.2605607631685123,-0.00015448406,0.0005618604,0.00062331185,0.00012318091
0.56,1.1241328870249465e-06,0.019511578201377236,-0.008695425406382063,2.6651569254181686e-06,0.6869877552750987,-0.2983739544340903,-0.00020820275,0.00053039147,0.00064656883,0.0001777648
0.5700000000000001,1.1501095618714896e-06,0.02679060444444703,-0.011835471915462413,2.5324427272113256e-06,0.7663169069321938,-0.3284471614101402,-0.00015924871,0.0005063503,0.0006998889,0.00023231702
0.58,1.1753415979184732e-06,0.03479124563456502,-0.015242604633845979,2.5125205984478632e-06,0.8316239775595567,-0.3519753138625516,-4.617311e-05,0.00045861583,0.00063348934,0.00012566475
0.59,1.1999139797646924e-06,0.04338228671025361,-0.018856603732922632,2.403544283257297e-06,0.8846732959334414,-0.36997735205389054,7.251371e-05,0.0004204656,0.0004973188,0.00011095824
0.6,1.2231675744442704e-06,0.0524490943866614,-0.022626663487,2.2503516701074024e-06,0.9270211589761937,-0.38332115125990085,1.4472753e-05,0.0003857906,0.000360433,0.00012800051
0.61,1.2441502510317368e-06,0.06189166159502698,-0.026509996100807922,1.9543257255935813e-06,0.9600402818859914,-0.3927458278319608,6.588176e-06,0.00036571966,0.00030663237,0.00010296283
0.62,1.2619864462519848e-06,0.07162288330486677,-0.030470644011090914,1.6225148588385243e-06,0.9849416756727574,-0.39888120073120537,2.1968968e-05,0.00035641482,0.0002910234,6.866502e-05
0.63,1.2766050838092615e-06,0.08156703136242678,-0.03447846718865949,1.3104239736028005e-06,1.0027926592184944,-0.40226343595721087,4.0915795e-05,0.00035608793,0.00026838854,6.106077e-05
0.64,1.288317934669411e-06,0.09165840259235923,-0.03850827707119115,1.040200792866447e-06,1.0145335233134667,-0.40334877674928776,5.3522177e-05,0.00037232926,0.0002626516,8.6289365e-05
0.65,1.2977448479349582e-06,0.10184012448320252,-0.04253909730843683,8.507279812690968e-07,1.0209924188072477,-0.40252522995939377,6.07362e-05,0.00038576918,0.00025948882,0.00010746764
0.66,1.305584713243295e-06,0.11206310054296625,-0.04655353324042783,7.209289145623965e-07,1.0228984397992593,-0.4001226674150661,6.501097e-05,0.00038785813,0.00026881322,9.034807e-05
0.67,1.3122252055339892e-06,0.12228507855028747,-0.050537234215665874,6.103123651320418e-07,1.0208931515570514,-0.3964213351570915,7.2885305e-05,0.00039872248,0.00027718022,9.3261246e-05
0.68,1.3179655346905674e-06,0.13246982613749794,-0.05447843446295908,5.396362809272095e-07,1.0155405620024676,-0.39165908868777055,8.2349405e-05,0.00041592214,0.0002839826,0.000112450216
0.6900000000000001,1.3232578068504062e-06,0.1425864019977963,-0.05836756129803841,5.190633958556476e-07,1.007336289520059,-0.3860376500471077,9.140745e-05,0.0004371195,0.00028863922,0.0001444188
0.7000000000000001,1.3286122911839492e-06,0.1526085126733128,-0.06219690106883475,5.503400922045334e-07,0.9967155364597743,-0.37972792343859724,9.994581e-05,0.00046163145,0.00029131398,0.000187309
0.71,1.3345441606584548e-06,0.16251394438009797,-0.06596031427855974,6.32781614145531e-07,0.9840601418160954,-0.37287453559827916,0.00011040643,0.0004922934,0.0002799742,0.00025742175
0.72,1.3415984191270914e-06,0.17228406097221285,-0.06965299269729715,7.727991698543479e-07,0.9697047741706246,-0.36559971068600805,0.00012207776,0.0005276832,0.00025803968,0.00034853956
0.73,1.3503576162122669e-06,0.1819033607280254,-0.07327125231054447,9.71659552128065e-07,0.9539425150478675,-0.35800657775260414,0.00013358984,0.00056546973,0.00023244694,0.00044945115
0.74,1.3613832957611263e-06,0.19135908543848038,-0.07681235686102093,1.2241143830546587e-06,0.9370297503405149,-0.3501819946769908,0.00014714617,0.00059481757,0.00021770224,0.000515928
0.75,1.3750385375207176e-06,0.2006408758562439,-0.08027436766023487,1.4966797780486183e-06,0.9191905609263425,-0.3421989881511041,0.00017845258,0.00062454725,0.00023350492,0.0005543181
0.76,1.3915796366853824e-06,0.209740467655547,-0.0836560156455709,1.800015830933907e-06,0.9006204486341058,-0.3341187741970663,0.00018212199,0.00065300567,0.00026360154,0.00058167754
0.77,1.4111784506772707e-06,0.2186514221160335,-0.08695659195459976,2.107817754132748e-06,0.8814895655846944,-0.3259924499425196,0.00013116375,0.00066695875,0.00023804605,0.00063576875
0.78,1.4334857544437732e-06,0.2273688876162929,-0.0901758547871932,2.3438854984067675e-06,0.8619456522786736,-0.3178625619959946,7.2006136e-05,0.0006659082,0.0002029948,0.0006914814
0.79,1.457724361803464e-06,0.23588939094080924,-0.09331395071222466,2.4967002673029993e-06,0.8421170581656965,-0.3097644334195699,6.9942325e-06,0.00065391464,0.00016139075,0.0007479894
0.8,1.483047840131385e-06,0.2442106542446744,-0.09637134784499439,2.5636399281228184e-06,0.8221148737611976,-0.301727218498633,-1.7678365e-05,0.00063927984,0.00011168048,0.0007773773
0.81,1.508685621807355e-06,0.25233143346005665,-0.09934877951856282,2.561832973077967e-06,0.8020350849374315,-0.293774946283266,2.1014363e-05,0.0006107609,4.1287392e-05,0.00074843736
0.8200000000000001,1.533899217674743e-06,0.26025137639542506,-0.10224719679348182,2.4814646785874265e-06,0.781960365202275,-0.2859272537573302,5.9690326e-05,0.0005825218,-2.7485192e-05,0.00071876263
0.8300000000000001,1.5579826636606299e-06,0.26797089652336475,-0.10506772660449266,2.338006697864102e-06,0.7619614313276659,-0.2781997899304548,0.00010113884,0.00054793525,-1.73226e-06,0.0006448948
0.84,1.58054967835476e-06,0.27549106278370816,-0.10781163559443604,2.178830705291665e-06,0.7420988774892346,-0.2706049387546063,0.00011323206,0.00051510567,3.4466386e-05,0.00058486173
0.85,1.601448528439381e-06,0.28281350211776757,-0.11048030046385503,2.0050030975447845e-06,0.7224239145995981,-0.26315240318563465,0.00012499746,0.00048280973,7.099286e-05,0.0005249684
0.86,1.6205530626288878e-06,0.2899403131680699,-0.11307518366542481,1.8204752938952463e-06,0.7029798445186038,-0.25584969269310176,0.00014195219,0.00045386143,0.00010219589,0.00047823088
0.87,1.637834439230414e-06,0.29687399177027196,-0.11559781285759968,1.6403759811480895e-06,0.6838029582900652,-0.24870239408763045,0.00018126331,0.00043263054,0.00012509897,0.00044999504
0.88,1.6534941456919698e-06,0.30361736543623064,-0.11804976337676287,1.4951122567240252e-06,0.6649234355299495,-0.24171450228003916,0.00023230631,0.0004043118,0.0001808852,0.0003397637
0.89,1.6676779702298986e-06,0.3101735372081032,-0.12043264373603811,1.3454694119496707e-06,0.6463663167728841,-0.2348886963313509,0.00028061494,0.00037692767,0.00023801252,0.00023358827
0.9,1.6803637437038794e-06,0.31654583537340475,-0.12274808286664325,1.1956337576410517e-06,0.628151722261141,-0.22822641796323176,0.00032745302,0.00035026064,0.00029482692,0.00012997491
0.91,1.691559061242409e-06,0.32273776854802444,-0.12499771927762161,1.0474477083519288e-06,0.6102956905131849,-0.22172816969233206,0.00037321635,0.00032424415,0.0003507398,2.848683e-05
0.92,1.7012854690326822e-06,0.3287529875267747,-0.127183192456538,9.018868734652121e-07,0.5928107009285372,-0.2153936692166701,0.0004178919,0.000298874,0.0004056804,-7.0818234e-05
0.93,1.709573179709473e-06,0.33459525204919566,-0.1293061357066516,7.597152819286644e-07,0.5757061354804895,-0.20922198286788318,0.00046147965,0.0002741525,0.00045958534,-0.0001678993
0.9400000000000001,1.7164591759977627e-06,0.3402684019067238,-0.13136817022598013,6.21528005253365e-07,0.5589886864024678,-0.20321164100568456,0.0004978478,0.00024851644,0.0005094409,-0.00026958017
0.9500000000000001,1.7219173474738812e-06,0.34577633187416196,-0.13337090026614065,4.745631640667853e-07,0.5426627143855901,-0.19736073894721345,0.00050667766,0.00021730969,0.0005355105,-0.00038999645
0.96,1.7255765107232064e-06,0.35112296985424984,-0.13531590925550507,2.6400289892806405e-07,0.5267305346444808,-0.1916670291007132,0.0005088262,0.00019033859,0.00046100095,-0.00042959256
0.97,1.7267783459475182e-06,0.35631225677293693,-0.13720475671342539,-1.4427927642380048e-08,0.5111924864317092,-0.18612798777704523,0.0004958436,0.0001824121,0.0004244186,-0.00042753806
0.98,1.7252396830117232e-06,0.36134813068147176,-0.1390389750464559,-2.841584379488489e-07,0.4960476870670921,-0.18074072956249465,0.00046986435,0.0001909337,0.00042065978,-0.0003895578
0.99,1.7213273832696996e-06,0.36623451430835746,-0.14082006707128494,-4.910573725678162e-07,0.48129398811597923,-0.17550222861550677,0.00043972768,0.00019753538,0.00042278692,-0.00035508117
1.0,1.715601580356517e-06,0.37097530362264436,-0.14254950514174217,-6.483653381064544e-07,0.46692821416812974,-0.1704094217624195,0.00039991364,0.00020028139,0.00043736026,-0.00032685185
1.01,1.7084869956695456e-06,0.37557435811059564,-0.1442287303755654,-7.69893768516835e-07,0.4529462699980874,-0.1654591310033917,0.00036118086,0.00020295708,0.0004515499,-0.00029942812
1.02,1.700310197588946e-06,0.3800354921917863,-0.14585915192086385,-8.617124426128452e-07,0.43934326088106773,-0.16064814399353183,0.0003235042,0.00020556478,0.00046537071,-0.00027278857
1.03,1.691342075895833e-06,0.384362467980508,-0.1474421465521216,-9.289152705079565e-07,0.4261136405435679,-0.1559732023322532,0.00028687622,0.00020809984,0.0004788041,-0.00024691923
